2010-09-16,3.38
2010-09-19,3.38
2010-09-20,3.38
2010-09-21,3.38
2010-09-22,2.5
2010-09-23,2.5
2010-09-24,2.5
2010-09-25,2.5
2010-09-26,3.38
2010-09-27,3.38
2010-09-28,3.38
2010-09-29,3.38
2010-09-30,3.38
2010-10-01,3.38
2010-10-02,3.38
2010-10-03,3.38
2010-10-04,3.38
2010-10-05,3.38
2010-10-06,3.36
2010-10-07,3.36
2010-10-08,3.36
2010-10-09,3.36
2010-10-10,3.36
2010-10-11,3.36
2010-10-12,3.36
2010-10-13,3.36
2010-10-14,3.48
2010-10-15,3.48
2010-10-16,3.48
2010-10-17,3.38
2010-10-18,3.38
2010-10-19,3.38
2010-10-20,3.38
2010-10-21,3.37
2010-10-22,3.37
2010-10-23,3.37
2010-10-24,3.37
2010-10-25,3.37
2010-10-26,3.37
2010-10-27,3.37
2010-10-28,3.37
2010-10-29,3.37
2010-10-30,3.37
2010-10-31,3.37
2010-11-01,3.37
2010-11-02,3.37
2010-11-03,3.37
2010-11-04,3.37
2010-11-05,3.37
2010-11-06,3.37
2010-11-07,3.37
2010-11-08,3.37
2010-11-09,3.37
2010-11-10,3.35
2010-11-11,3.35
2010-11-12,3.35
2010-11-13,3.37
2010-11-14,3.37
2010-11-15,3.37
2010-11-16,3.37
2010-11-17,3.37
2010-11-18,3.37
2010-11-19,3.37
2010-11-20,3.37
2010-11-21,3.37
2010-11-22,3.37
2010-11-23,3.48
2010-11-24,3.48
2010-11-25,3.48
2010-11-26,3.48
2010-11-27,3.48
2010-11-28,3.48
2010-11-29,3.48
2010-11-30,3.48
2010-12-01,3.48
2010-12-02,3.48
2010-12-03,3.06
2010-12-04,3.13
2010-12-05,3.24
2010-12-06,3.29
2010-12-07,3.29
2010-12-08,3.29
2010-12-09,3.29
2010-12-10,3.12
2010-12-11,3.15
2010-12-12,3.15
2010-12-13,3.15
2010-12-14,3.15
2010-12-15,3.24
2010-12-16,3.13
2010-12-17,3.02
2010-12-18,3.02
2010-12-19,3.02
2010-12-20,2.96
2010-12-21,3.0
2010-12-22,3.03
2010-12-23,3.05
2010-12-24,3.05
2010-12-25,3.06
2010-12-26,3.06
2010-12-27,3.09
2010-12-28,3.3
2010-12-29,3.56
2010-12-30,3.49
2010-12-31,3.4
2011-01-01,3.4
2011-01-02,3.4
2011-01-03,3.37
2011-01-04,3.4
2011-01-05,3.49
2011-01-06,3.64
2011-01-07,3.44
2011-01-08,3.32
2011-01-09,3.32
2011-01-10,3.43
2011-01-11,3.33
2011-01-12,3.37
2011-01-13,3.5
2011-01-14,3.47
2011-01-15,3.47
2011-01-16,3.51
2011-01-17,3.55
2011-01-18,3.74
2011-01-19,3.51
2011-01-20,3.61
2011-01-21,3.62
2011-01-22,3.62
2011-01-23,3.47
2011-01-24,3.34
2011-01-25,3.31
2011-01-26,3.4
2011-01-27,3.44
2011-01-28,3.38
2011-01-29,3.38
2011-01-30,3.38
2011-01-31,3.45
2011-02-01,3.32
2011-02-02,3.34
2011-02-03,3.38
2011-02-04,3.38
2011-02-05,3.36
2011-02-06,3.36
2011-02-07,3.36
2011-02-08,3.48
2011-02-09,3.58
2011-02-10,3.5
2011-02-11,3.5
2011-02-12,3.48
2011-02-13,3.46
2011-02-14,3.52
2011-02-15,3.46
2011-02-16,3.4
2011-02-17,3.46
2011-02-18,3.53
2011-02-19,3.53
2011-02-20,3.49
2011-02-21,3.55
2011-02-22,3.46
2011-02-23,3.42
2011-02-24,3.36
2011-02-25,3.38
2011-02-26,3.33
2011-02-27,3.28
2011-02-28,3.31
2011-03-01,3.34
2011-03-02,3.24
2011-03-03,3.24
2011-03-04,3.25
2011-03-05,3.25
2011-03-06,3.39
2011-03-07,3.42
2011-03-08,3.47
2011-03-09,3.55
2011-03-10,3.66
2011-03-11,3.67
2011-03-12,3.64
2011-03-13,3.68
2011-03-14,3.67
2011-03-15,3.84
2011-03-16,3.92
2011-03-17,3.92
2011-03-18,3.74
2011-03-19,3.74
2011-03-20,3.74
2011-03-21,3.69
2011-03-22,3.69
2011-03-23,3.69
2011-03-24,3.69
2011-03-25,3.69
2011-03-26,3.69
2011-03-27,3.69
2011-03-28,3.69
2011-03-29,3.72
2011-03-30,3.75
2011-03-31,3.64
2011-04-01,3.63
2011-04-02,3.52
2011-04-03,3.71
2011-04-04,3.66
2011-04-05,3.67
2011-04-06,3.72
2011-04-07,3.89
2011-04-08,3.83
2011-04-09,3.92
2011-04-10,3.96
2011-04-11,3.77
2011-04-12,3.77
2011-04-13,3.76
2011-04-14,3.89
2011-04-15,3.77
2011-04-16,3.98
2011-04-17,4.09
2011-04-18,4.15
2011-04-19,4.15
2011-04-20,3.92
2011-04-21,3.83
2011-04-22,3.92
2011-04-23,4.02
2011-04-24,4.15
2011-04-25,3.84
2011-04-29,3.72
2011-04-30,3.8
2011-05-01,3.8
2011-05-02,3.79
2011-05-03,3.72
2011-05-04,3.7
2011-05-05,3.76
2011-05-06,3.97
2011-05-07,4.1
2011-05-08,4.0
2011-05-09,4.05
2011-05-10,4.01
2011-05-11,4.01
2011-05-12,4.01
2011-05-13,4.05
2011-05-14,4.13
2011-05-15,4.25
2011-05-16,4.58
2011-05-17,4.58
2011-05-18,4.51
2011-05-19,4.51
2011-05-20,4.45
2011-05-21,4.45
2011-05-22,4.21
2011-05-23,4.09
2011-05-24,4.13
2011-05-25,4.14
2011-05-26,4.02
2011-05-27,4.13
2011-05-28,4.04
2011-05-29,4.03
2011-05-30,4.03
2011-05-31,4.06
2011-06-01,4.06
2011-06-02,4.18
2011-06-03,4.05
2011-06-04,4.08
2011-06-05,4.07
2011-06-06,3.97
2011-06-07,3.94
2011-06-08,3.94
2011-06-09,3.93
2011-06-10,3.94
2011-06-11,3.93
2011-06-12,4.06
2011-06-13,4.09
2011-06-14,4.21
2011-06-15,4.16
2011-06-16,4.18
2011-06-17,4.18
2011-06-18,4.19
2011-06-19,4.15
2011-06-20,4.15
2011-06-21,4.14
2011-06-22,4.14
2011-06-23,4.14
2011-06-24,4.14
2011-06-25,4.15
2011-06-26,4.15
2011-06-27,4.21
2011-06-28,4.21
2011-06-29,4.25
2011-06-30,4.22
2011-07-01,4.41
2011-07-02,4.41
2011-07-03,4.49
2011-07-04,4.49
2011-07-05,4.49
2011-07-06,4.49
2011-07-07,4.46
2011-07-08,4.49
2011-07-09,4.49
2011-07-10,4.53
2011-07-11,4.59
2011-07-12,4.52
2011-07-13,4.43
2011-07-14,4.41
2011-07-15,4.38
2011-07-16,4.38
2011-07-17,4.41
2011-07-18,4.54
2011-07-19,4.34
2011-07-20,4.36
2011-07-21,4.36
2011-07-22,4.39
2011-07-23,4.49
2011-07-24,4.63
2011-07-25,4.66
2011-07-26,4.68
2011-07-27,4.67
2011-07-28,4.67
2011-07-29,4.43
2011-07-30,4.43
2011-07-31,4.37
2011-08-01,4.39
2011-08-02,4.53
2011-08-03,4.62
2011-08-04,4.65
2011-08-05,4.68
2011-08-06,4.69
2011-08-07,4.69
2011-08-08,4.69
2011-08-09,4.8
2011-08-10,4.71
2011-08-11,4.73
2011-08-12,4.89
2011-08-13,4.93
2011-08-14,4.96
2011-08-15,4.8
2011-08-16,4.82
2011-08-17,5.15
2011-08-18,5.36
2011-08-19,5.29
2011-08-20,5.38
2011-08-21,5.38
2011-08-22,5.35
2011-08-23,5.28
2011-08-24,5.26
2011-08-25,5.26
2011-08-26,5.26
2011-08-27,5.28
2011-08-28,5.54
2011-08-29,5.7
2011-08-30,5.76
2011-08-31,5.53
2011-09-01,5.53
2011-09-02,5.46
2011-09-03,5.46
2011-09-04,5.71
2011-09-05,5.62
2011-09-06,5.72
2011-09-07,5.75
2011-09-08,5.75
2011-09-09,6.03
2011-09-10,5.85
2011-09-11,5.89
2011-09-12,5.81
2011-09-13,5.81
2011-09-14,5.85
2011-09-15,5.93
2011-09-16,6.17
2011-09-17,6.17
2011-09-18,6.11
2011-09-19,6.11
2011-09-20,6.11
2011-09-21,6.12
2011-09-22,6.13
2011-09-23,6.13
2011-09-24,6.15
2011-09-25,6.15
2011-09-26,6.15
2011-09-27,6.22
2011-09-28,6.4
2011-09-29,6.43
2011-09-30,6.36
2011-10-01,6.36
2011-10-02,6.36
2011-10-03,6.36
2011-10-04,6.25
2011-10-05,6.38
2011-10-06,6.32
2011-10-07,6.26
2011-10-09,6.04
2011-10-10,6.04
2011-10-11,6.04
2011-10-12,6.45
2011-10-13,6.49
2011-10-14,6.49
2011-10-15,6.45
2011-10-16,6.45
2011-10-17,6.55
2011-10-18,6.41
2011-10-19,6.16
2011-10-20,6.16
2011-10-21,6.16
2011-10-22,6.32
2011-10-23,6.37
2011-10-24,6.31
2011-10-25,6.29
2011-10-26,6.27
2011-10-27,6.17
2011-10-28,6.17
2011-10-29,6.21
2011-10-30,6.22
2011-10-31,6.08
2011-11-01,6.19
2011-11-02,6.17
2011-11-03,6.11
2011-11-04,6.05
2011-11-05,6.02
2011-11-06,6.03
2011-11-07,6.06
2011-11-08,6.04
2011-11-09,5.99
2011-11-10,5.85
2011-11-11,5.89
2011-11-12,5.89
2011-11-13,5.89
2011-11-14,5.9
2011-11-15,5.88
2011-11-16,5.91
2011-11-17,6.04
2011-11-18,6.11
2011-11-19,6.11
2011-11-20,6.1
2011-11-21,6.1
2011-11-22,6.08
2011-11-23,6.05
2011-11-24,6.01
2011-11-25,6.01
2011-11-26,6.01
2011-11-27,6.06
2011-11-28,6.06
2011-11-29,6.05
2011-11-30,6.03
2011-12-01,6.03
2011-12-02,6.06
2011-12-03,6.04
2011-12-04,5.98
2011-12-05,5.98
2011-12-06,6.03
2011-12-07,6.03
2011-12-08,6.03
2011-12-09,5.95
2011-12-10,5.98
2011-12-11,5.99
2011-12-12,5.96
2011-12-13,5.96
2011-12-14,5.96
2011-12-15,5.96
2011-12-16,5.97
2011-12-17,5.97
2011-12-18,5.97
2011-12-19,5.97
2011-12-20,5.97
2011-12-21,5.92
2011-12-22,5.92
2011-12-23,5.95
2011-12-24,5.95
2011-12-25,5.95
2011-12-26,5.95
2011-12-27,5.98
2011-12-28,5.91
2011-12-29,5.91
2011-12-30,5.88
2011-12-31,5.89
2012-01-01,5.91
2012-01-02,5.94
2012-01-03,5.97
2012-01-04,5.96
2012-01-05,5.79
2012-01-06,5.97
2012-01-07,5.97
2012-01-08,5.97
2012-01-09,5.97
2012-01-10,5.97
2012-01-11,5.97
2012-01-12,5.85
2012-01-13,5.87
2012-01-14,5.87
2012-01-15,5.87
2012-01-16,5.88
2012-01-17,5.92
2012-01-18,5.92
2012-01-19,5.88
2012-01-20,5.86
2012-01-21,5.93
2012-01-22,5.94
2012-01-23,5.94
2012-01-24,5.93
2012-01-25,5.87
2012-01-26,5.86
2012-01-27,5.84
2012-01-28,5.84
2012-01-29,5.97
2012-01-30,5.95
2012-01-31,5.93
2012-02-01,5.96
2012-02-02,5.96
2012-02-03,5.98
2012-02-04,6.0
2012-02-05,6.0
2012-02-06,6.05
2012-02-07,6.05
2012-02-08,6.05
2012-02-09,6.02
2012-02-10,6.02
2012-02-11,6.03
2012-02-12,6.07
2012-02-13,6.04
2012-02-14,6.01
2012-02-15,6.09
2012-02-16,6.06
2012-02-17,6.04
2012-02-18,6.04
2012-02-19,6.04
2012-02-20,6.04
2012-02-21,5.95
2012-02-22,5.95
2012-02-23,5.95
2012-02-24,5.97
2012-02-25,5.98
2012-02-26,5.99
2012-02-27,6.0
2012-02-28,6.01
2012-02-29,6.05
2012-03-01,6.11
2012-03-02,6.15
2012-03-03,6.21
2012-03-04,6.25
2012-03-05,6.32
2012-03-06,6.22
2012-03-07,6.37
2012-03-08,6.41
2012-03-09,6.4
2012-03-10,6.36
2012-03-11,6.36
2012-03-12,6.36
2012-03-13,6.25
2012-03-14,6.28
2012-03-15,6.28
2012-03-16,6.26
2012-03-17,6.26
2012-03-18,6.28
2012-03-19,6.22
2012-03-20,6.27
2012-03-21,6.32
2012-03-22,6.29
2012-03-23,6.29
2012-03-24,6.25
2012-03-25,6.28
2012-03-26,6.25
2012-03-27,6.29
2012-03-28,6.27
2012-03-29,6.24
2012-03-30,6.29
2012-03-31,6.31
2012-04-01,6.36
2012-04-02,6.45
2012-04-03,6.46
2012-04-04,6.39
2012-04-05,6.4
2012-04-06,6.44
2012-04-07,6.44
2012-04-08,6.44
2012-04-09,6.44
2012-04-10,6.44
2012-04-11,6.5
2012-04-12,6.54
2012-04-13,6.56
2012-04-14,6.58
2012-04-15,6.49
2012-04-16,6.53
2012-04-17,6.52
2012-04-18,6.52
2012-04-19,6.54
2012-04-20,6.45
2012-04-21,6.42
2012-04-22,6.45
2012-04-23,6.46
2012-04-24,6.42
2012-04-25,6.44
2012-04-26,6.43
2012-04-27,6.43
2012-04-28,6.43
2012-04-29,6.41
2012-04-30,6.39
2012-05-01,6.41
2012-05-02,6.37
2012-05-03,6.34
2012-05-04,6.41
2012-05-05,6.45
2012-05-06,6.45
2012-05-07,6.4
2012-05-08,6.37
2012-05-09,6.31
2012-05-10,6.37
2012-05-11,6.32
2012-05-12,6.32
2012-05-13,6.28
2012-05-14,6.38
2012-05-15,6.38
2012-05-16,6.4
2012-05-17,6.41
2012-05-18,6.39
2012-05-19,6.37
2012-05-20,6.39
2012-05-21,6.4
2012-05-22,6.39
2012-05-23,6.4
2012-05-24,6.33
2012-05-25,6.27
2012-05-26,6.23
2012-05-27,6.23
2012-05-28,6.21
2012-05-29,6.26
2012-05-30,6.26
2012-05-31,6.25
2012-06-01,6.29
2012-06-02,6.29
2012-06-03,6.28
2012-06-04,6.33
2012-06-05,6.32
2012-06-06,6.29
2012-06-07,6.28
2012-06-08,6.26
2012-06-09,6.24
2012-06-10,6.19
2012-06-11,6.17
2012-06-12,6.24
2012-06-13,6.26
2012-06-14,6.26
2012-06-15,6.32
2012-06-16,6.26
2012-06-17,6.27
2012-06-18,6.23
2012-06-19,6.24
2012-06-20,6.25
2012-06-21,6.24
2012-06-22,6.27
2012-06-23,6.27
2012-06-24,6.31
2012-06-25,6.27
2012-06-26,6.27
2012-06-27,6.25
2012-06-28,6.27
2012-06-29,6.24
2012-06-30,6.21
2012-07-01,6.23
2012-07-02,6.21
2012-07-03,6.21
2012-07-04,6.21
2012-07-05,6.23
2012-07-06,6.26
2012-07-07,6.24
2012-07-08,6.26
2012-07-09,6.27
2012-07-10,6.19
2012-07-11,6.2
2012-07-12,6.18
2012-07-13,6.18
2012-07-14,6.18
2012-07-15,6.18
2012-07-16,6.2
2012-07-17,6.18
2012-07-18,6.19
2012-07-19,6.21
2012-07-20,6.21
2012-07-21,6.25
2012-07-22,6.25
2012-07-23,6.26
2012-07-24,6.25
2012-07-25,6.29
2012-07-26,6.27
2012-07-27,6.28
2012-07-28,6.28
2012-07-29,6.24
2012-07-30,6.23
2012-07-31,6.3
2012-08-01,6.31
2012-08-02,6.26
2012-08-03,6.26
2012-08-04,6.26
2012-08-05,6.24
2012-08-06,6.26
2012-08-07,6.31
2012-08-08,6.31
2012-08-09,6.3
2012-08-10,6.25
2012-08-11,6.25
2012-08-12,6.25
2012-08-13,6.25
2012-08-14,6.26
2012-08-15,6.26
2012-08-16,6.26
2012-08-17,6.23
2012-08-18,6.23
2012-08-19,6.25
2012-08-20,6.25
2012-08-21,6.24
2012-08-22,6.24
2012-08-23,6.23
2012-08-24,6.2
2012-08-25,6.2
2012-08-26,6.2
2012-08-27,6.2
2012-08-28,6.21
2012-08-29,6.21
2012-08-30,6.21
2012-08-31,6.21
2012-09-01,6.21
2012-09-02,6.21
2012-09-03,6.21
2012-09-04,6.21
2012-09-05,6.23
2012-09-06,6.25
2012-09-07,6.25
2012-09-08,6.22
2012-09-09,6.22
2012-09-10,6.19
2012-09-11,6.18
2012-09-12,6.17
2012-09-13,6.2
2012-09-14,6.21
2012-09-15,6.21
2012-09-16,6.19
2012-09-17,6.15
2012-09-18,6.13
2012-09-19,6.13
2012-09-20,6.14
2012-09-21,6.15
2012-09-22,6.15
2012-09-23,6.17
2012-09-24,6.16
2012-09-25,6.17
2012-09-26,6.17
2012-09-27,6.17
2012-09-28,6.14
2012-09-29,6.14
2012-09-30,6.14
2012-10-01,6.12
2012-10-02,6.15
2012-10-03,6.1
2012-10-04,6.11
2012-10-05,6.11
2012-10-06,6.21
2012-10-07,6.18
2012-10-08,6.18
2012-10-09,6.16
2012-10-10,6.15
2012-10-11,6.18
2012-10-12,6.19
2012-10-13,6.18
2012-10-14,6.18
2012-10-15,6.2
2012-10-16,6.16
2012-10-17,6.18
2012-10-18,6.16
2012-10-19,6.16
2012-10-20,6.16
2012-10-21,6.14
2012-10-22,6.2
2012-10-23,6.18
2012-10-24,6.24
2012-10-25,6.2
2012-10-26,6.2
2012-10-27,6.15
2012-10-28,6.21
2012-10-29,6.23
2012-10-30,6.3
2012-10-31,6.27
2012-11-01,6.35
2012-11-02,6.34
2012-11-03,6.37
2012-11-04,6.36
2012-11-05,6.32
2012-11-06,6.34
2012-11-07,6.39
2012-11-08,6.38
2012-11-09,6.41
2012-11-10,6.42
2012-11-11,6.42
2012-11-12,6.43
2012-11-13,6.38
2012-11-14,6.38
2012-11-15,6.47
2012-11-16,6.47
2012-11-17,6.47
2012-11-18,6.47
2012-11-19,6.44
2012-11-20,6.48
2012-11-21,6.48
2012-11-22,6.52
2012-11-23,6.54
2012-11-24,6.53
2012-11-25,6.52
2012-11-26,6.55
2012-11-27,6.54
2012-11-28,6.51
2012-11-29,6.53
2012-11-30,6.53
2012-12-01,6.52
2012-12-02,6.49
2012-12-03,6.53
2012-12-04,6.53
2012-12-05,6.6
2012-12-06,6.63
2012-12-07,6.68
2012-12-08,6.68
2012-12-09,6.66
2012-12-10,6.66
2012-12-11,6.64
2012-12-12,6.76
2012-12-13,6.72
2012-12-14,6.66
2012-12-15,6.7
2012-12-16,6.75
2012-12-17,6.73
2012-12-18,6.78
2012-12-19,6.68
2012-12-20,6.65
2012-12-21,6.64
2012-12-22,6.61
2012-12-23,6.73
2012-12-24,6.72
2012-12-25,6.75
2012-12-26,6.74
2012-12-27,6.81
2012-12-28,6.81
2012-12-29,6.78
2012-12-30,6.73
2012-12-31,6.77
2013-01-01,6.77
2013-01-02,6.78
2013-01-03,6.75
2013-01-04,6.72
2013-01-05,6.69
2013-01-06,6.71
2013-01-07,6.72
2013-01-08,6.72
2013-01-09,6.7
2013-01-10,6.68
2013-01-11,6.59
2013-01-12,6.61
2013-01-13,6.62
2013-01-14,6.64
2013-01-15,6.71
2013-01-16,6.66
2013-01-17,6.7
2013-01-18,6.78
2013-01-19,6.79
2013-01-20,6.86
2013-01-21,6.82
2013-01-22,6.98
2013-01-23,7.05
2013-01-24,7.06
2013-01-25,7.06
2013-01-26,7.08
2013-01-27,7.01
2013-01-28,7.02
2013-01-29,7.08
2013-01-30,7.03
2013-01-31,7.02
2013-02-01,7.12
2013-02-02,7.16
2013-02-03,7.15
2013-02-04,7.15
2013-02-05,7.17
2013-02-06,7.25
2013-02-07,7.21
2013-02-08,7.27
2013-02-09,7.17
2013-02-10,7.23
2013-02-11,7.29
2013-02-12,7.33
2013-02-13,7.36
2013-02-14,7.38
2013-02-15,7.37
2013-02-16,7.38
2013-02-17,7.4
2013-02-18,7.45
2013-02-19,7.43
2013-02-20,7.43
2013-02-21,7.39
2013-02-22,7.45
2013-02-23,7.44
2013-02-24,7.49
2013-02-25,7.48
2013-02-26,7.55
2013-02-27,7.69
2013-02-28,7.69
2013-03-01,7.69
2013-03-02,7.69
2013-03-03,7.69
2013-03-04,7.73
2013-03-05,7.79
2013-03-06,7.83
2013-03-07,7.83
2013-03-08,7.69
2013-03-09,7.65
2013-03-10,7.59
2013-03-11,7.54
2013-03-12,7.55
2013-03-13,7.54
2013-03-14,7.55
2013-03-15,7.55
2013-03-16,7.56
2013-03-17,7.56
2013-03-18,7.58
2013-03-19,7.59
2013-03-20,7.59
2013-03-21,7.59
2013-03-22,7.59
2013-03-23,7.59
2013-03-24,7.59
2013-03-25,7.75
2013-03-26,7.91
2013-03-27,7.91
2013-03-28,7.91
2013-03-29,7.97
2013-03-30,7.94
2013-03-31,7.94
2013-04-01,7.95
2013-04-02,7.94
2013-04-03,7.97
2013-04-04,7.97
2013-04-05,7.97
2013-04-06,7.97
2013-04-07,7.97
2013-04-08,8.01
2013-04-09,7.97
2013-04-10,7.97
2013-04-11,7.94
2013-04-12,7.95
2013-04-13,7.95
2013-04-14,7.95
2013-04-15,7.95
2013-04-16,7.95
2013-04-17,7.95
2013-04-18,7.95
2013-04-19,7.95
2013-04-20,7.97
2013-04-21,7.97
2013-04-22,7.97
2013-04-23,7.95
2013-04-24,7.99
2013-04-25,7.95
2013-04-26,7.95
2013-04-27,7.95
2013-04-28,7.95
2013-04-29,7.97
2013-04-30,7.95
2013-05-01,7.95
2013-05-02,7.95
2013-05-03,7.95
2013-05-04,7.95
2013-05-05,7.95
2013-05-06,7.95
2013-05-07,7.99
2013-05-08,7.99
2013-05-09,7.98
2013-05-10,7.98
2013-05-11,7.95
2013-05-12,8.0
2013-05-13,8.0
2013-05-14,8.02
2013-05-15,7.95
2013-05-16,8.01
2013-05-17,8.01
2013-05-18,8.0
2013-05-19,7.99
2013-05-20,8.02
2013-05-21,8.02
2013-05-22,8.01
2013-05-23,7.87
2013-05-24,7.95
2013-05-25,7.95
2013-05-26,8.01
2013-05-27,7.99
2013-05-28,7.99
2013-05-29,7.99
2013-05-30,7.99
2013-05-31,7.99
2013-06-01,7.99
2013-06-02,7.99
2013-06-03,7.99
2013-06-04,7.99
2013-06-05,7.99
2013-06-06,7.99
2013-06-07,7.99
2013-06-08,7.99
2013-06-09,7.99
2013-06-10,7.99
2013-06-11,7.99
2013-06-12,8.01
2013-06-13,8.22
2013-06-14,8.01
2013-06-15,8.01
2013-06-16,7.99
2013-06-17,8.01
2013-06-18,8.0
2013-06-19,8.02
2013-06-21,8.27
2013-06-22,8.34
2013-06-23,8.33
2013-06-24,8.3
2013-06-25,8.29
2013-06-26,8.25
2013-06-27,8.3
2013-06-28,8.39
2013-06-29,8.43
2013-06-30,8.43
2013-07-01,8.36
2013-07-02,8.28
2013-07-03,8.43
2013-07-04,8.46
2013-07-05,8.45
2013-07-06,8.47
2013-07-07,8.42
2013-07-08,8.42
2013-07-09,8.39
2013-07-10,8.38
2013-07-11,8.42
2013-07-12,8.43
2013-07-13,8.43
2013-07-14,8.42
2013-07-15,8.43
2013-07-16,8.49
2013-07-17,8.5
2013-07-18,8.44
2013-07-19,8.44
2013-07-20,8.4
2013-07-21,8.4
2013-07-22,8.41
2013-07-23,8.46
2013-07-24,8.47
2013-07-25,8.5
2013-07-26,8.44
2013-07-27,8.43
2013-07-28,8.39
2013-07-29,8.43
2013-07-30,8.39
2013-07-31,8.51
2013-08-01,8.51
2013-08-02,8.48
2013-08-03,8.48
2013-08-04,8.48
2013-08-05,8.48
2013-08-06,8.48
2013-08-07,8.48
2013-08-08,8.4
2013-08-09,8.49
2013-08-10,8.53
2013-08-11,8.53
2013-08-12,8.49
2013-08-13,8.55
2013-08-14,8.57
2013-08-15,8.61
2013-08-16,8.64
2013-08-17,8.66
2013-08-18,8.66
2013-08-19,8.62
2013-08-20,8.61
2013-08-21,8.64
2013-08-22,8.64
2013-08-23,8.74
2013-08-24,8.86
2013-08-25,8.85
2013-08-26,8.85
2013-08-27,8.76
2013-08-28,8.81
2013-08-29,8.84
2013-08-30,8.93
2013-08-31,8.93
2013-09-01,8.94
2013-09-02,8.94
2013-09-03,8.92
2013-09-05,8.84
2013-09-06,8.76
2013-09-07,8.89
2013-09-08,8.89
2013-09-09,8.98
2013-09-10,8.94
2013-09-11,8.95
2013-09-12,8.88
2013-09-13,8.88
2013-09-14,8.86
2013-09-15,8.87
2013-09-16,8.9
2013-09-17,8.9
2013-09-18,8.93
2013-09-19,9.02
2013-09-20,9.06
2013-09-21,9.05
2013-09-22,9.05
2013-09-23,9.08
2013-09-24,9.04
2013-09-25,8.9
2013-09-26,8.98
2013-09-27,8.92
2013-09-28,8.9
2013-09-29,8.94
2013-09-30,9.03
2013-10-01,9.08
2013-10-02,9.1
2013-10-03,9.17
2013-10-04,9.17
2013-10-05,9.23
2013-10-06,9.24
2013-10-07,9.42
2013-10-08,9.45
2013-10-09,9.33
2013-10-10,9.34
2013-10-11,9.45
2013-10-12,9.42
2013-10-13,9.41
2013-10-14,9.35
2013-10-15,9.28
2013-10-16,9.17
2013-10-17,9.14
2013-10-18,9.22
2013-10-19,9.05
2013-10-20,9.11
2013-10-21,9.08
2013-10-22,9.18
2013-10-23,9.2
2013-10-24,9.3
2013-10-25,9.17
2013-10-26,9.14
2013-10-27,9.17
2013-10-28,9.19
2013-10-29,9.27
2013-10-30,9.26
2013-10-31,9.24
2013-11-01,9.2
2013-11-02,9.18
2013-11-03,9.18
2013-11-04,9.2
2013-11-05,9.2
2013-11-06,9.2
2013-11-07,9.08
2013-11-08,9.08
2013-11-09,9.12
2013-11-10,9.13
2013-11-11,9.18
2013-11-12,9.2
2013-11-13,9.26
2013-11-14,9.21
2013-11-15,9.23
2013-11-16,9.28
2013-11-17,9.3
2013-11-18,9.31
2013-11-19,9.35
2013-11-20,9.49
2013-11-21,9.55
2013-11-22,9.61
2013-11-23,9.49
2013-11-24,9.46
2013-11-25,9.48
2013-11-26,9.54
2013-11-27,9.61
2013-11-28,9.66
2013-11-29,9.77
2013-11-30,9.78
2013-12-01,9.69
2013-12-02,9.64
2013-12-03,9.7
2013-12-04,9.71
2013-12-05,9.68
2013-12-06,9.66
2013-12-07,9.71
2013-12-08,9.71
2013-12-09,9.66
2013-12-10,9.62
2013-12-11,9.62
2013-12-12,9.58
2013-12-13,9.67
2013-12-14,9.68
2013-12-16,9.62
2013-12-17,9.57
2013-12-18,9.67
2013-12-19,9.71
2013-12-20,9.76
2013-12-21,9.8
2013-12-22,9.72
2013-12-23,9.75
2013-12-24,9.8
2013-12-25,9.84
2013-12-26,9.84
2013-12-27,9.94
2013-12-28,10.05
2013-12-29,10.02
2013-12-30,10.1
2013-12-31,10.09
2014-01-01,10.12
2014-01-02,10.21
2014-01-03,10.19
2014-01-04,10.24
2014-01-05,10.24
2014-01-06,10.19
2014-01-07,10.21
2014-01-08,10.29
2014-01-09,10.27
2014-01-10,10.26
2014-01-11,10.24
2014-01-12,10.28
2014-01-13,10.31
2014-01-14,10.26
2014-01-15,10.32
2014-01-16,10.31
2014-01-17,10.28
2014-01-18,10.28
2014-01-19,10.3
2014-01-20,10.31
2014-01-21,10.38
2014-01-22,10.45
2014-01-23,10.57
2014-01-24,10.66
2014-01-25,10.66
2014-01-26,10.63
2014-01-27,10.63
2014-01-28,10.76
2014-01-29,10.78
2014-01-30,10.78
2014-01-31,10.83
2014-02-01,10.89
2014-02-02,10.84
2014-02-03,10.75
2014-02-04,10.82
2014-02-05,10.85
2014-02-06,10.77
2014-02-07,10.74
2014-02-08,10.71
2014-02-09,10.71
2014-02-10,10.74
2014-02-11,10.72
2014-02-12,10.71
2014-02-13,10.75
2014-02-14,10.73
2014-02-15,10.76
2014-02-16,10.74
2014-02-17,10.68
2014-02-18,10.68
2014-02-19,10.79
2014-02-20,10.79
2014-02-21,10.79
2014-02-22,10.81
2014-02-23,10.93
2014-02-24,10.97
2014-02-25,10.97
2014-02-26,10.99
2014-02-27,11.41
2014-02-28,11.49
2014-03-01,11.54
2014-03-02,11.54
2014-03-03,11.48
2014-03-04,11.48
2014-03-05,11.49
2014-03-06,11.49
2014-03-07,11.53
2014-03-08,11.61
2014-03-09,11.61
2014-03-10,11.69
2014-03-11,11.63
2014-03-12,11.58
2014-03-13,11.63
2014-03-14,11.51
2014-03-15,11.48
2014-03-16,11.43
2014-03-17,11.45
2014-03-18,11.22
2014-03-19,11.38
2014-03-20,11.22
2014-03-21,11.41
2014-03-22,11.45
2014-03-23,11.49
2014-03-24,11.49
2014-03-25,11.51
2014-03-26,11.49
2014-03-27,11.49
2014-03-28,11.49
2014-03-29,11.49
2014-03-30,11.49
2014-03-31,11.49
2014-04-01,11.49
2014-04-02,11.49
2014-04-03,11.49
2014-04-04,11.49
2014-04-05,11.49
2014-04-06,11.53
2014-04-07,11.53
2014-04-08,11.53
2014-04-09,11.49
2014-04-10,11.49
2014-04-11,11.49
2014-04-12,11.49
2014-04-13,11.49
2014-04-14,11.49
2014-04-15,11.49
2014-04-16,11.49
2014-04-17,11.49
2014-04-18,11.49
2014-04-19,11.49
2014-04-20,11.49
2014-04-21,11.49
2014-04-22,11.49
2014-04-23,11.49
2014-04-24,11.59
2014-04-25,11.59
2014-04-26,11.59
2014-04-27,11.53
2014-04-28,11.56
2014-04-29,11.51
2014-04-30,11.59
2014-05-01,11.62
2014-05-02,11.61
2014-05-03,11.62
2014-05-04,11.74
2014-05-05,11.72
2014-05-06,11.72
2014-05-07,11.7
2014-05-08,11.7
2014-05-09,11.7
2014-05-11,11.62
2014-05-12,11.63
2014-05-13,11.61
2014-05-14,11.55
2014-05-15,11.49
2014-05-16,11.49
2014-05-17,11.49
2014-05-18,11.48
2014-05-20,11.45
2014-05-21,11.48
2014-05-22,11.48
2014-05-23,11.43
2014-05-24,11.25
2014-05-25,11.48
2014-05-26,11.47
2014-05-27,11.48
2014-05-28,11.49
2014-05-29,11.49
2014-05-30,11.49
2014-05-31,11.53
2014-06-01,11.51
2014-06-02,11.49
2014-06-03,11.49
2014-06-04,11.5
2014-06-05,11.51
2014-06-06,11.5
2014-06-07,11.51
2014-06-08,11.63
2014-06-09,11.63
2014-06-10,11.54
2014-06-11,11.49
2014-06-12,11.49
2014-06-13,11.58
2014-06-14,11.63
2014-06-15,11.67
2014-06-16,11.68
2014-06-17,11.72
2014-06-18,11.7
2014-06-19,11.86
2014-06-20,11.87
2014-06-21,11.88
2014-06-22,11.87
2014-06-23,11.85
2014-06-25,11.88
2014-06-26,11.88
2014-06-27,11.87
2014-06-28,11.87
2014-06-29,11.86
2014-06-30,11.86
2014-07-01,12.07
2014-07-02,12.09
2014-07-03,12.08
2014-07-04,12.08
2014-07-05,12.09
2014-07-06,12.1
2014-07-07,12.25
2014-07-08,12.2
2014-07-09,12.16
2014-07-11,12.1
2014-07-12,12.09
2014-07-13,12.09
2014-07-14,12.11
2014-07-15,12.07
2014-07-16,12.07
2014-07-17,12.02
2014-07-19,12.05
2014-07-20,12.05
2014-07-21,12.08
2014-07-22,12.07
2014-07-23,12.0
2014-07-24,11.98
2014-07-25,11.99
2014-07-26,11.86
2014-07-27,11.86
2014-07-28,11.87
2014-07-29,11.87
2014-07-30,11.88
2014-07-31,11.88
2014-08-01,11.92
2014-08-02,11.99
2014-08-03,11.99
2014-08-04,12.0
2014-08-05,12.0
2014-08-06,11.99
2014-08-07,12.0
2014-08-08,12.0
2014-08-09,12.0
2014-08-10,12.07
2014-08-11,12.07
2014-08-12,11.99
2014-08-13,12.04
2014-08-14,12.13
2014-08-15,12.07
2014-08-16,12.04
2014-08-17,12.04
2014-08-18,12.0
2014-08-19,12.04
2014-08-20,12.04
2014-08-21,12.04
2014-08-22,12.07
2014-08-23,12.07
2014-08-24,12.07
2014-08-25,12.07
2014-08-26,12.07
2014-08-27,12.08
2014-08-28,12.0
2014-08-29,12.08
2014-08-30,12.07
2014-08-31,12.04
2014-09-01,12.04
2014-09-02,12.01
2014-09-03,12.01
2014-09-04,12.03
2014-09-05,12.05
2014-09-06,12.06
2014-09-07,12.05
2014-09-08,12.04
2014-09-09,12.03
2014-09-10,12.0
2014-09-11,12.0
2014-09-12,12.0
2014-09-13,12.0
2014-09-14,12.0
2014-09-15,11.95
2014-09-16,11.95
2014-09-17,11.95
2014-09-18,11.95
2014-09-19,11.97
2014-09-20,11.95
2014-09-21,11.96
2014-09-22,11.97
2014-09-23,11.95
2014-09-24,11.95
2014-09-25,11.97
2014-09-26,11.97
2014-09-27,11.99
2014-09-28,11.98
2014-09-29,11.98
2014-09-30,11.97
2014-10-01,11.97
2014-10-02,11.95
2014-10-03,11.94
2014-10-04,11.94
2014-10-05,11.97
2014-10-06,11.94
2014-10-07,11.88
2014-10-08,11.88
2014-10-10,11.81
2014-10-11,11.8
2014-10-12,11.81
2014-10-13,11.81
2014-10-14,11.81
2014-10-15,11.81
2014-10-16,11.81
2014-10-17,11.88
2014-10-18,11.88
2014-10-19,11.86
2014-10-20,11.84
2014-10-21,11.73
2014-10-22,11.69
2014-10-23,11.69
2014-10-24,11.63
2014-10-25,11.64
2014-10-26,11.62
2014-10-27,11.54
2014-10-28,11.53
2014-10-29,11.5
2014-10-30,11.5
2014-10-31,11.5
2014-11-01,11.63
2014-11-02,11.55
2014-11-03,11.59
2014-11-04,11.52
2014-11-05,11.66
2014-11-06,11.68
2014-11-07,11.69
2014-11-08,11.69
2014-11-09,11.64
2014-11-10,11.68
2014-11-11,11.68
2014-11-12,11.69
2014-11-13,11.65
2014-11-14,11.64
2014-11-15,11.64
2014-11-16,11.63
2014-11-17,11.62
2014-11-18,11.63
2014-11-19,11.66
2014-11-20,11.68
2014-11-21,11.64
2014-11-22,11.69
2014-11-23,11.69
2014-11-24,11.69
2014-11-25,11.66
2014-11-26,11.66
2014-11-27,11.64
2014-11-28,11.64
2014-11-29,11.64
2014-11-30,11.58
2014-12-01,11.53
2014-12-02,11.56
2014-12-03,11.58
2014-12-04,11.61
2014-12-05,11.61
2014-12-06,11.63
2014-12-07,11.65
2014-12-08,11.56
2014-12-09,11.58
2014-12-10,11.64
2014-12-11,11.65
2014-12-12,11.56
2014-12-13,11.51
2014-12-14,11.5
2014-12-15,11.56
2014-12-16,11.56
2014-12-17,11.5
2014-12-18,11.5
2014-12-19,11.53
2014-12-20,11.5
2014-12-21,11.58
2014-12-22,11.49
2014-12-23,11.5
2014-12-24,11.49
2014-12-25,11.49
2014-12-26,11.49
2014-12-27,11.5
2014-12-28,11.49
2014-12-29,11.55
2014-12-30,11.52
2014-12-31,11.61
2015-01-01,11.68
2015-01-02,11.68
2015-01-03,11.68
2015-01-04,11.68
2015-01-05,11.69
2015-01-06,11.69
2015-01-07,11.69
2015-01-08,11.69
2015-01-09,11.69
2015-01-10,11.69
2015-01-11,11.71
2015-01-12,11.71
2015-01-13,11.7
2015-01-14,11.71
2015-01-15,11.74
2015-01-16,11.7
2015-01-17,11.69
2015-01-18,11.7
2015-01-19,11.7
2015-01-20,11.7
2015-01-21,11.69
2015-01-22,11.69
2015-01-23,11.69
2015-01-24,11.69
2015-01-25,11.69
2015-01-26,11.69
2015-01-27,11.69
2015-01-28,11.69
2015-01-29,11.69
2015-01-30,11.69
2015-01-31,11.69
2015-02-01,11.69
2015-02-02,11.69
2015-02-03,11.72
2015-02-04,11.69
2015-02-05,11.69
2015-02-06,11.69
2015-02-07,11.72
2015-02-08,11.69
2015-02-09,11.77
2015-02-10,11.8
2015-02-11,11.84
2015-02-12,11.84
2015-02-13,11.75
2015-02-14,11.8
2015-02-15,11.84
2015-02-16,11.84
2015-02-17,11.8
2015-02-18,11.69
2015-02-19,11.59
2015-02-20,11.69
2015-02-21,11.69
2015-02-22,11.69
2015-02-23,11.69
2015-02-24,11.69
2015-02-25,11.7
2015-02-26,11.7
2015-02-27,11.69
2015-02-28,11.69
2015-03-01,11.69
2015-03-02,11.69
2015-03-03,11.75
2015-03-04,11.8
2015-03-05,11.8
2015-03-06,11.77
2015-03-07,11.73
2015-03-08,11.73
2015-03-09,11.71
2015-03-10,11.69
2015-03-11,11.69
2015-03-12,11.68
2015-03-13,11.69
2015-03-14,11.69
2015-03-15,11.69
2015-03-16,11.69
2015-03-17,11.69
2015-03-18,11.69
2015-03-19,11.71
2015-03-20,11.72
2015-03-21,11.71
2015-03-22,11.81
2015-03-23,11.74
2015-03-24,11.75
2015-03-25,11.78
2015-03-26,11.84
2015-03-27,11.78
2015-03-28,11.93
2015-03-29,11.92
2015-03-30,11.93
2015-03-31,11.93
2015-04-01,11.95
2015-04-02,11.93
2015-04-03,11.94
2015-04-04,11.94
2015-04-05,11.93
2015-04-06,11.95
2015-04-07,11.94
2015-04-08,11.93
2015-04-09,11.94
2015-04-10,11.94
2015-04-11,11.94
2015-04-12,11.93
2015-04-13,11.89
2015-04-14,11.81
2015-04-15,11.78
2015-04-16,11.75
2015-04-17,11.75
2015-04-18,11.76
2015-04-19,11.87
2015-04-20,11.87
2015-04-21,11.92
2015-04-22,11.94
2015-04-23,11.94
2015-04-24,11.92
2015-04-25,11.89
2015-04-26,11.78
2015-04-27,11.76
2015-04-28,11.75
2015-04-29,11.74
2015-04-30,11.75
2015-05-01,11.76
2015-05-02,11.76
2015-05-03,11.76
2015-05-04,11.75
2015-05-05,11.74
2015-05-06,11.75
2015-05-07,11.75
2015-05-08,11.87
2015-05-09,11.89
2015-05-10,11.92
2015-05-11,11.96
2015-05-12,11.92
2015-05-13,11.94
2015-05-14,11.91
2015-05-15,11.89
2015-05-16,11.91
2015-05-17,11.92
2015-05-18,11.89
2015-05-19,11.87
2015-05-20,11.87
2015-05-21,11.87
2015-05-22,11.81
2015-05-23,11.81
2015-05-24,11.87
2015-05-25,11.92
2015-05-26,11.96
2015-05-27,11.89
2015-05-28,11.91
2015-05-29,11.89
2015-05-30,11.89
2015-05-31,11.91
2015-06-01,11.92
2015-06-02,11.88
2015-06-03,11.92
2015-06-04,11.91
2015-06-05,11.92
2015-06-06,11.92
2015-06-07,11.94
2015-06-08,11.96
2015-06-09,12.01
2015-06-10,12.01
2015-06-11,12.0
2015-06-12,12.0
2015-06-13,11.96
2015-06-14,11.93
2015-06-15,11.93
2015-06-16,11.89
2015-06-17,11.88
2015-06-18,11.89
2015-06-19,11.94
2015-06-20,11.95
2015-06-21,11.96
2015-06-22,11.96
2015-06-23,12.0
2015-06-24,12.0
2015-06-25,12.0
2015-06-26,12.0
2015-06-27,12.09
2015-06-28,12.12
2015-06-29,12.22
2015-06-30,12.22
2015-07-01,12.17
2015-07-02,12.12
2015-07-03,12.17
2015-07-04,12.17
2015-07-05,12.21
2015-07-06,12.21
2015-07-07,12.17
2015-07-08,12.32
2015-07-09,12.25
2015-07-10,12.19
2015-07-11,12.19
2015-07-12,12.15
2015-07-13,12.15
2015-07-14,12.11
2015-07-15,12.13
2015-07-16,12.3
2015-07-17,12.32
2015-07-18,12.31
2015-07-19,12.31
2015-07-20,12.35
2015-07-21,12.35
2015-07-22,12.34
2015-07-23,12.33
2015-07-24,12.29
2015-07-25,12.31
2015-07-26,12.34
2015-07-27,12.35
2015-07-28,12.47
2015-07-29,12.32
2015-07-30,12.33
2015-07-31,12.44
2015-08-01,12.4
2015-08-02,12.63
2015-08-03,12.61
2015-08-04,12.59
2015-08-05,12.63
2015-08-06,12.85
2015-08-07,12.61
2015-08-08,12.76
2015-08-09,13.01
2015-08-10,13.06
2015-08-11,13.09
2015-08-12,13.05
2015-08-13,12.99
2015-08-14,13.19
2015-08-15,13.3
2015-08-16,13.4
2015-08-17,13.3
2015-08-18,13.4
2015-08-19,13.45
2015-08-20,13.5
2015-08-21,13.77
2015-08-22,13.64
2015-08-23,13.52
2015-08-24,13.51
2015-08-25,13.5
2015-08-26,13.42
2015-08-27,13.37
2015-08-28,13.36
2015-08-29,13.43
2015-08-30,13.5
2015-08-31,13.41
2015-09-01,13.39
2015-09-02,13.3
2015-09-03,13.27
2015-09-04,13.4
2015-09-05,13.27
2015-09-06,13.24
2015-09-07,13.25
2015-09-08,13.15
2015-09-09,13.1
2015-09-10,13.1
2015-09-11,13.08
2015-09-12,13.1
2015-09-13,13.07
2015-09-14,13.07
2015-09-15,13.07
2015-09-16,13.04
2015-09-17,13.04
2015-09-18,13.0
2015-09-19,13.02
2015-09-20,13.02
2015-09-21,13.01
2015-09-22,12.97
2015-09-24,13.02
2015-09-25,13.02
2015-09-26,13.03
2015-09-27,13.04
2015-09-28,13.06
2015-09-29,13.04
2015-09-30,13.07
2015-10-01,13.09
2015-10-02,13.1
2015-10-03,13.16
2015-10-04,13.19
2015-10-05,13.19
2015-10-06,13.18
2015-10-07,13.15
2015-10-08,13.16
2015-10-09,13.18
2015-10-10,13.21
2015-10-11,13.17
2015-10-12,13.1
2015-10-13,13.11
2015-10-14,13.11
2015-10-15,13.07
2015-10-16,13.07
2015-10-17,13.13
2015-10-18,13.13
2015-10-19,13.16
2015-10-20,13.22
2015-10-21,13.19
2015-10-22,13.19
2015-10-23,13.19
2015-10-24,13.25
2015-10-25,13.25
2015-10-26,13.25
2015-10-27,13.25
2015-10-28,13.25
2015-10-29,13.23
2015-10-30,13.25
2015-10-31,13.2
2015-11-01,13.22
2015-11-02,13.25
2015-11-03,13.25
2015-11-04,13.25
2015-11-05,13.21
2015-11-06,13.22
2015-11-07,13.28
2015-11-08,13.27
2015-11-09,13.29
2015-11-10,13.39
2015-11-11,13.36
2015-11-12,13.4
2015-11-13,13.4
2015-11-14,13.5
2015-11-15,13.45
2015-11-16,13.51
2015-11-17,13.71
2015-11-18,13.7
2015-11-19,13.5
2015-11-20,13.38
2015-11-21,13.54
2015-11-22,13.54
2015-11-23,13.58
2015-11-24,13.96
2015-11-25,14.26
2015-11-26,14.3
2015-11-27,14.37
2015-11-28,14.38
2015-11-29,14.5
2015-11-30,14.55
2015-12-01,15.04
2015-12-02,15.23
2015-12-03,14.97
2015-12-04,15.23
2015-12-05,15.23
2015-12-06,15.23
2015-12-07,15.3
2015-12-08,15.28
2015-12-09,15.54
2015-12-10,15.62
2015-12-11,15.84
2015-12-12,15.99
2015-12-13,15.99
2015-12-14,15.99
2015-12-15,15.98
2015-12-16,15.72
2015-12-17,15.3
2015-12-18,15.27
2015-12-19,15.23
2015-12-20,15.84
2015-12-21,15.57
2015-12-22,15.84
2015-12-23,15.89
2015-12-24,16.05
2015-12-25,16.08
2015-12-26,16.41
2015-12-27,16.0
2015-12-28,16.81
2015-12-29,17.67
2015-12-30,17.67
2015-12-31,16.77
2016-01-01,19.54
2016-01-02,19.54
2016-01-03,19.54
2016-01-04,19.05
2016-01-05,19.05
2016-01-06,18.56
2016-01-07,17.68
2016-01-09,20.99
2016-01-10,21.74
2016-01-12,22.0
2016-01-13,21.99
2016-01-14,21.63
2016-01-15,21.5
2016-01-16,18.78
2016-01-17,18.49
2016-01-18,18.2
2016-01-19,17.93
2016-01-20,17.89
2016-01-21,18.0
2016-01-22,17.04
2016-01-23,17.04
2016-01-24,17.09
2016-01-25,17.09
2016-01-26,16.98
2016-01-27,16.68
2016-01-28,16.59
2016-01-29,16.68
2016-01-30,16.66
2016-01-31,16.66
2016-02-01,16.68
2016-02-02,16.98
2016-02-03,16.99
2016-02-04,16.98
2016-02-05,16.98
2016-02-06,17.99
2016-02-07,17.99
2016-02-08,16.98
2016-02-09,16.98
2016-02-10,16.98
2016-02-12,16.6
2016-02-13,16.98
2016-02-14,17.01
2016-02-15,17.04
2016-02-16,16.98
2016-02-18,18.43
2016-02-19,18.61
2016-02-20,18.62
2016-02-21,19.13
2016-02-22,20.56
2016-02-23,20.14
2016-02-24,20.29
2016-02-25,21.12
2016-02-26,20.29
2016-02-27,20.14
2016-02-28,19.49
2016-02-29,20.29
2016-03-01,19.99
2016-03-02,20.29
2016-03-03,19.99
2016-03-05,21.01
2016-03-06,20.89
2016-03-07,21.25
2016-03-08,21.25
2016-03-09,21.25
2016-03-10,21.99
2016-03-11,21.99
2016-03-12,21.99
2016-03-13,21.99
2016-03-14,21.92
2016-03-15,21.99
2016-03-16,21.99
2016-03-17,21.99
2016-03-18,21.25
2016-03-19,21.42
2016-03-20,21.19
2016-03-21,20.95
2016-03-22,20.06
2016-03-23,20.89
2016-03-24,20.69
2016-03-25,21.01
2016-03-26,20.89
2016-03-27,20.95
2016-03-28,20.95
2016-03-29,21.12
2016-03-30,20.95
2016-03-31,21.25
2016-04-01,21.25
2016-04-02,21.25
2016-04-03,21.25
2016-04-04,21.25
2016-04-05,21.25
2016-04-06,21.25
2016-04-07,21.25
2016-04-08,21.25
2016-04-09,21.3
2016-04-10,21.25
2016-04-11,21.25
2016-04-13,21.46
2016-04-14,21.38
2016-04-15,21.28
2016-04-16,21.38
2016-04-17,21.3
2016-04-18,21.2
2016-04-19,20.93
2016-04-20,20.75
2016-04-21,20.64
2016-04-22,20.24
2016-04-23,20.75
2016-04-24,20.34
2016-04-25,20.71
2016-04-26,21.19
2016-04-27,21.14
2016-04-28,21.15
2016-04-29,21.2
2016-04-30,21.3
2016-05-01,21.46
2016-05-02,21.28
2016-05-03,21.15
2016-05-04,21.15
2016-05-05,21.74
2016-05-06,21.53
2016-05-07,21.39
2016-05-09,21.38
2016-05-10,21.48
2016-05-11,21.42
2016-05-12,21.6
2016-05-13,21.6
2016-05-14,21.71
2016-05-15,21.71
2016-05-16,21.65
2016-05-17,21.62
2016-05-18,21.71
2016-05-19,21.71
2016-05-20,21.71
2016-05-21,21.77
2016-05-22,21.77
2016-05-23,21.71
2016-05-24,21.71
2016-05-25,21.82
2016-05-26,21.77
2016-05-27,21.84
2016-05-28,21.82
2016-05-29,21.82
2016-05-31,21.8
2016-06-01,21.88
2016-06-02,21.88
2016-06-03,21.77
2016-06-04,21.71
2016-06-05,21.65
2016-06-06,21.29
2016-06-07,21.25
2016-06-08,21.37
2016-06-09,21.53
2016-06-12,21.55
2016-06-13,21.64
2016-06-14,21.52
2016-06-15,21.36
2016-06-16,21.36
2016-06-17,21.49
2016-06-18,21.52
2016-06-19,21.59
2016-06-20,21.56
2016-06-21,21.53
2016-06-22,21.57
2016-06-23,21.71
2016-06-24,21.95
2016-06-25,21.77
2016-06-26,21.71
2016-06-27,21.83
2016-06-28,21.63
2016-06-29,21.67
2016-06-30,21.63
2016-07-01,21.62
2016-07-02,21.62
2016-07-04,21.53
2016-07-05,21.6
2016-07-06,21.46
2016-07-07,21.32
2016-07-08,21.19
2016-07-09,21.32
2016-07-10,21.32
2016-07-11,21.63
2016-07-12,21.57
2016-07-13,21.63
2016-07-15,21.85
2016-07-16,21.82
2016-07-17,21.73
2016-07-18,21.85
2016-07-19,21.82
2016-07-20,21.66
2016-07-21,21.69
2016-07-22,21.77
2016-07-23,21.66
2016-07-24,21.77
2016-07-25,21.6
2016-07-26,21.6
2016-07-27,21.6
2016-07-28,21.63
2016-07-29,21.67
2016-07-30,21.71
2016-07-31,21.73
2016-08-01,21.83
2016-08-02,21.82
2016-08-03,21.77
2016-08-04,21.84
2016-08-05,21.71
2016-08-06,21.84
2016-08-07,21.84
2016-08-08,21.84
2016-08-09,21.82
2016-08-10,21.73
2016-08-11,21.63
2016-08-12,21.84
2016-08-13,21.84
2016-08-14,21.87
2016-08-15,21.9
2016-08-16,21.95
2016-08-17,21.9
2016-08-18,21.95
2016-08-19,21.9
2016-08-20,21.89
2016-08-22,21.9
2016-08-23,21.9
2016-08-24,21.9
2016-08-25,21.87
2016-08-26,21.84
2016-08-27,21.84
2016-08-28,21.82
2016-08-29,21.73
2016-08-30,21.83
2016-08-31,21.63
2016-09-01,21.83
2016-09-02,21.89
2016-09-03,21.94
2016-09-04,21.87
2016-09-05,21.87
2016-09-06,21.94
2016-09-07,21.89
2016-09-08,21.84
2016-09-09,21.84
2016-09-10,21.84
2016-09-11,21.94
2016-09-12,21.89
2016-09-13,21.84
2016-09-14,22.16
2016-09-15,22.44
2016-09-16,22.53
2016-09-17,22.18
2016-09-19,22.19
2016-09-20,21.99
2016-09-21,22.35
2016-09-22,22.5
2016-09-23,22.48
2016-09-24,22.46
2016-09-25,22.48
2016-09-26,22.48
2016-09-27,22.46
2016-09-28,22.46
2016-09-29,22.35
2016-09-30,22.24
2016-10-01,22.19
2016-10-02,22.35
2016-10-03,22.24
2016-10-04,22.35
2016-10-05,22.46
2016-10-06,22.46
2016-10-07,22.19
2016-10-08,22.24
2016-10-09,22.12
2016-10-10,22.21
2016-10-11,22.26
2016-10-12,21.94
2016-10-13,21.84
2016-10-14,21.84
2016-10-15,21.68
2016-10-16,21.63
2016-10-17,21.95
2016-10-18,21.95
2016-10-19,21.95
2016-10-20,21.95
2016-10-21,21.84
2016-10-22,21.84
2016-10-23,21.84
2016-10-24,21.84
2016-10-25,21.84
2016-10-26,21.84
2016-10-27,21.99
2016-10-28,22.13
2016-10-29,22.46
2016-10-30,22.47
2016-10-31,20.48
2016-11-01,22.36
2016-11-02,22.23
2016-11-03,21.98
2016-11-04,21.98
2016-11-05,21.95
2016-11-06,21.95
2016-11-07,21.95
2016-11-08,20.95
2016-11-09,21.98
2016-11-10,21.79
2016-11-11,21.95
2016-11-12,21.95
2016-11-13,21.95
2016-11-14,21.99
2016-11-15,21.99
2016-11-16,21.98
2016-11-17,21.78
2016-11-18,21.92
2016-11-19,21.98
2016-11-20,21.95
2016-11-21,21.92
2016-11-22,21.95
2016-11-23,21.98
2016-11-24,21.92
2016-11-25,21.95
2016-11-26,21.98
2016-11-27,21.95
2016-11-28,21.84
2016-11-29,21.75
2016-11-30,21.82
2016-12-01,21.78
2016-12-02,21.77
2016-12-03,21.78
2016-12-04,21.77
2016-12-05,21.92
2016-12-06,21.92
2016-12-07,21.93
2016-12-08,21.75
2016-12-09,21.75
2016-12-10,21.75
2016-12-11,21.74
2016-12-12,21.63
2016-12-13,21.63
2016-12-14,21.74
2016-12-15,21.39
2016-12-16,21.39
2016-12-17,21.07
2016-12-18,21.07
2016-12-19,21.0
2016-12-20,21.0
2016-12-21,20.99
2016-12-22,21.07
2016-12-23,20.99
2016-12-24,21.14
2016-12-25,21.16
2016-12-26,21.07
2016-12-27,20.99
2016-12-28,21.07
2016-12-29,21.44
2016-12-30,21.63
2016-12-31,21.71
2017-01-01,21.87
2017-01-02,21.95
2017-01-03,21.72
2017-01-04,21.83
2017-01-05,21.84
2017-01-06,21.84
2017-01-07,21.93
2017-01-08,21.93
2017-01-09,21.98
2017-01-10,21.93
2017-01-11,21.99
2017-01-12,22.25
2017-01-13,22.12
2017-01-14,21.99
2017-01-15,22.12
2017-01-16,22.25
2017-01-17,22.25
2017-01-18,22.12
2017-01-19,22.36
2017-01-20,22.36
2017-01-21,22.18
2017-01-22,22.36
2017-01-23,22.46
2017-01-24,22.36
2017-01-25,22.25
2017-01-26,22.05
2017-01-27,22.18
2017-01-28,22.1
2017-01-29,22.46
2017-01-30,22.48
2017-01-31,21.96
2017-02-01,21.93
2017-02-02,21.96
2017-02-03,21.19
2017-02-04,21.19
2017-02-05,21.2
2017-02-06,21.2
2017-02-07,21.29
2017-02-08,21.2
2017-02-09,21.2
2017-02-10,21.34
2017-02-11,21.28
2017-02-12,21.37
2017-02-13,21.17
2017-02-14,21.17
2017-02-16,21.14
2017-02-17,21.3
2017-02-18,21.44
2017-02-19,21.44
2017-02-20,21.44
2017-02-21,21.61
2017-02-22,21.6
2017-02-23,21.6
2017-02-26,21.61
2017-02-27,21.6
2017-02-28,21.61
2017-03-01,21.6
2017-03-02,21.59
2017-03-03,21.6
2017-03-04,21.61
2017-03-05,21.61
2017-03-06,21.61
2017-03-07,20.0
2017-03-08,21.82
2017-03-09,21.74
2017-03-10,21.65
2017-03-11,21.66
2017-03-12,21.65
2017-03-13,21.65
2017-03-14,21.54
2017-03-15,21.52
2017-03-17,21.58
2017-03-18,21.55
2017-03-19,21.65
2017-03-20,21.74
2017-03-21,21.84
2017-03-22,21.74
2017-03-23,21.84
2017-03-24,21.97
2017-03-25,21.89
2017-03-26,21.97
2017-03-27,21.93
2017-03-28,21.92
2017-03-29,21.88
2017-03-30,21.84
2017-03-31,21.74
2017-04-01,21.74
2017-04-02,21.74
2017-04-03,21.74
2017-04-04,21.63
2017-04-05,21.74
2017-04-06,21.62
2017-04-07,21.84
2017-04-08,21.84
2017-04-09,21.9
2017-04-10,21.9
2017-04-11,21.92
2017-04-12,22.14
2017-04-13,21.93
2017-04-14,21.93
2017-04-15,22.04
2017-04-16,21.84
2017-04-17,21.84
2017-04-18,21.84
2017-04-19,21.78
2017-04-20,21.89
2017-04-21,21.89
2017-04-22,21.89
2017-04-23,21.72
2017-04-24,21.48
2017-04-25,21.84
2017-04-26,22.12
2017-04-27,21.89
2017-04-28,22.0
2017-04-29,22.12
2017-04-30,22.12
2017-05-01,22.22
2017-05-02,22.37
2017-05-03,22.76
2017-05-04,22.78
2017-05-05,22.79
2017-05-06,22.59
2017-05-07,22.48
2017-05-08,22.39
2017-05-09,22.32
2017-05-10,22.32
2017-05-11,22.33
2017-05-12,22.04
2017-05-13,22.22
2017-05-14,22.46
2017-05-15,22.34
2017-05-16,22.11
2017-05-17,22.46
2017-05-18,22.46
2017-05-19,22.79
2017-05-20,22.79
2017-05-21,22.79
2017-05-22,22.78
2017-05-23,22.79
2017-05-24,22.78
2017-05-25,22.79
2017-05-26,22.7
2017-05-27,22.74
2017-05-28,22.74
2017-05-29,22.65
2017-05-30,22.67
2017-05-31,22.7
2017-06-01,22.74
2017-06-02,22.77
2017-06-03,22.77
2017-06-04,22.7
2017-06-05,22.59
2017-06-06,22.63
2017-06-07,22.63
2017-06-08,22.77
2017-06-09,22.7
2017-06-10,22.77
2017-06-11,22.77
2017-06-12,22.77
2017-06-13,22.61
2017-06-14,22.63
2017-06-15,22.63
2017-06-16,22.7
2017-06-17,22.79
2017-06-18,22.79
2017-06-19,22.79
2017-06-20,22.77
2017-06-21,22.79
2017-06-22,22.79
2017-06-23,22.77
2017-06-24,22.79
2017-06-25,22.86
2017-06-26,22.93
2017-06-27,22.8
2017-06-28,22.9
2017-06-29,22.8
2017-06-30,23.0
2017-07-01,23.0
2017-07-02,22.8
2017-07-03,22.98
2017-07-04,22.88
2017-07-05,23.0
2017-07-06,22.93
2017-07-07,23.27
2017-07-08,23.27
2017-07-09,23.26
2017-07-10,23.27
2017-07-11,23.27
2017-07-12,23.1
2017-07-13,23.09
2017-07-14,23.09
2017-07-15,23.0
2017-07-16,23.26
2017-07-17,23.13
2017-07-18,23.0
2017-07-19,23.43
2017-07-20,23.46
2017-07-21,23.36
2017-07-22,23.13
2017-07-23,23.13
2017-07-24,23.13
2017-07-25,22.5
2017-07-26,23.0
2017-07-27,23.26
2017-07-28,23.43
2017-07-29,23.2
2017-07-30,23.46
2017-07-31,23.65
2017-08-01,24.53
2017-08-02,24.65
2017-08-03,24.65
2017-08-04,24.69
2017-08-05,24.81
2017-08-06,25.01
2017-08-07,25.07
2017-08-08,25.07
2017-08-09,25.07
2017-08-10,26.23
2017-08-11,27.19
2017-08-12,26.22
2017-08-13,26.23
2017-08-14,26.23
2017-08-15,26.96
2017-08-16,26.73
2017-08-17,26.23
2017-08-18,26.24
2017-08-19,26.25
2017-08-20,26.49
2017-08-21,26.25
2017-08-22,26.2
2017-08-23,26.23
2017-08-24,26.2
2017-08-25,26.23
2017-08-26,26.2
2017-08-27,26.2
2017-08-28,26.17
2017-08-29,26.17
2017-08-30,26.17
2017-08-31,26.17
2017-09-01,25.64
2017-09-02,25.64
2017-09-03,25.91
2017-09-04,25.64
2017-09-05,25.64
2017-09-06,25.28
2017-09-07,25.47
2017-09-08,25.25
2017-09-09,25.25
2017-09-10,25.0
2017-09-11,25.0
2017-09-12,24.5
2017-09-13,24.9
2017-09-14,24.48
2017-09-15,24.5
2017-09-16,24.49
2017-09-17,24.8
2017-09-18,24.64
2017-09-19,24.48
2017-09-20,24.64
2017-09-21,24.48
2017-09-22,24.16
2017-09-23,24.0
2017-09-24,24.04
2017-09-25,24.07
2017-09-26,24.0
2017-09-27,23.91
2017-09-28,23.96
2017-09-29,24.14
2017-09-30,24.14
2017-10-01,24.14
2017-10-02,24.21
2017-10-03,24.18
2017-10-04,24.21
2017-10-05,24.18
2017-10-06,24.23
2017-10-07,24.14
2017-10-08,24.39
2017-10-09,24.31
2017-10-10,24.14
2017-10-11,24.27
2017-10-12,24.09
2017-10-13,24.09
2017-10-14,24.09
2017-10-15,24.09
2017-10-19,24.19
2017-10-20,24.51
2017-10-21,24.17
2017-10-22,24.23
2017-10-23,24.16
2017-10-24,24.16
2017-10-25,24.2
2017-10-26,24.23
2017-10-27,24.23
2017-10-28,24.48
2017-10-29,24.61
2017-10-30,24.75
2017-10-31,24.41
2017-11-01,24.19
2017-11-02,24.19
2017-11-03,24.23
2017-11-04,24.68
2017-11-05,24.99
2017-11-06,25.0
2017-11-07,24.99
2017-11-08,23.9
2017-11-09,24.07
2017-11-10,24.07
2017-11-11,24.0
2017-11-12,24.82
2017-11-13,24.91
2017-11-14,24.14
2017-11-15,24.82
2017-11-16,24.82
2017-11-17,24.99
2017-11-18,24.82
2017-11-19,24.99
2017-11-20,24.82
2017-11-21,25.0
2017-11-22,25.0
2017-11-23,25.1
2017-11-24,25.0
2017-11-25,25.54
2017-11-26,25.59
2017-11-27,25.59
2017-11-28,25.62
2017-11-29,25.64
2017-11-30,25.64
2017-12-01,25.64
2017-12-02,25.99
2017-12-03,26.08
2017-12-04,26.13
2017-12-05,26.08
2017-12-06,26.13
2017-12-07,26.08
2017-12-08,26.17
2017-12-09,26.13
2017-12-10,26.13
2017-12-11,26.17
2017-12-12,26.13
2017-12-13,26.17
2017-12-14,26.36
2017-12-15,26.36
2017-12-16,26.55
2017-12-17,26.56
2017-12-18,26.56
2017-12-19,26.13
2017-12-20,26.13
2017-12-21,25.9
2017-12-22,25.77
2017-12-23,25.17
2017-12-24,25.17
2017-12-25,26.08
2017-12-26,26.13
2017-12-27,26.57
2017-12-28,26.62
2017-12-29,26.87
2017-12-30,26.99
2017-12-31,27.5
2018-01-01,27.5
2018-01-02,27.25
2018-01-03,27.49
2018-01-04,26.62
2018-01-05,27.06
2018-01-06,28.0
2018-01-07,28.49
2018-01-08,28.21
2018-01-09,27.5
2018-01-10,27.5
2018-01-11,28.12
2018-01-12,27.5
2018-01-13,26.4
2018-01-14,27.5
2018-01-15,26.62
2018-01-16,26.4
2018-01-17,26.17
2018-01-18,26.08
2018-01-19,26.08
2018-01-20,26.17
2018-01-21,26.08
2018-01-22,25.99
2018-01-23,26.4
2018-01-24,26.99
2018-01-25,27.74
2018-01-26,26.81
2018-01-27,26.62
2018-01-28,26.62
2018-01-29,26.13
2018-01-30,26.13
2018-01-31,26.13
2018-02-01,26.08
2018-02-02,26.08
2018-02-03,26.17
2018-02-04,28.24
2018-02-05,27.99
2018-02-06,27.98
2018-02-07,27.98
2018-02-08,27.99
2018-02-09,27.95
